time (sec),Na_i(mmol/L)
0.501,5.633941
0.502,5.633963
0.503,5.633979
0.504,5.633998
0.505,5.634023
0.506,5.634053
0.507,5.634087999999999
0.508,5.634128
0.509,5.634172
0.51,5.634221
0.511,5.634274
0.512,5.63433
0.513,5.63439
0.514,5.634452
0.515,5.634517
0.516,5.6345849999999995
0.517,5.634654
0.518,5.634725
0.519,5.634798
0.52,5.634873000000001
0.521,5.634949
0.522,5.635026
0.523,5.635104
0.524,5.6351830000000005
0.525,5.635262
0.526,5.635343
0.527,5.6354239999999995
0.528,5.635505
0.529,5.635587
0.53,5.635669
0.531,5.635752
0.532,5.635835
0.533,5.635918
0.534,5.6360019999999995
0.535,5.636085
0.536,5.636169000000001
0.537,5.636252
0.538,5.636336
0.539,5.636419999999999
0.54,5.636504
0.541,5.636588
0.542,5.636672
0.543,5.636755
0.544,5.636839
0.545,5.636923
0.546,5.6370059999999995
0.547,5.63709
0.548,5.637173000000001
0.549,5.637256
0.55,5.637339
0.551,5.637423
0.552,5.637505
0.553,5.637588
0.554,5.637671
0.555,5.637753
0.556,5.637836
0.557,5.637918
0.558,5.638
0.559,5.638082
0.56,5.638164
0.561,5.6382449999999995
0.562,5.638326999999999
0.563,5.638408
0.564,5.638489
0.565,5.63857
0.566,5.638651
0.567,5.638732
0.568,5.638813
0.569,5.638893
0.57,5.638973
0.571,5.639053
0.572,5.639133
0.573,5.639213
0.574,5.639293
0.575,5.639372
0.576,5.6394519999999995
0.577,5.639531
0.578,5.63961
0.579,5.639689
0.58,5.639768
0.581,5.6398459999999995
0.582,5.639925
0.583,5.640003
0.584,5.6400809999999995
0.585,5.64016
0.586,5.640237
0.587,5.640315
0.588,5.640393
0.589,5.640471
0.59,5.640548
0.591,5.640625
0.592,5.640702
0.593,5.640779
0.594,5.640855999999999
0.595,5.640933
0.596,5.64101
0.597,5.6410860000000005
0.598,5.6411620000000005
0.599,5.641239
0.6,5.6413150000000005
0.601,5.6413910000000005
0.602,5.641466
0.603,5.641541999999999
0.604,5.641618
0.605,5.641693
0.606,5.641768
0.607,5.641843
0.608,5.641918
0.609,5.641993
0.61,5.642068
0.611,5.642143
0.612,5.642217
0.613,5.642291
0.614,5.642365
0.615,5.6424389999999995
0.616,5.642513
0.617,5.642587000000001
0.618,5.64266
0.619,5.642733
0.62,5.642807
0.621,5.642879
0.622,5.642951999999999
0.623,5.643024
0.624,5.643097
0.625,5.643169
0.626,5.6432400000000005
0.627,5.643312
0.628,5.643383
0.629,5.643453
0.63,5.643523
0.631,5.643593
0.632,5.643662
0.633,5.643731
0.634,5.6438
0.635,5.643867
0.636,5.643934
0.637,5.644
0.638,5.6440660000000005
0.639,5.6441300000000005
0.64,5.6441930000000005
0.641,5.6442559999999995
0.642,5.644317
0.643,5.6443769999999995
0.644,5.644435
0.645,5.644492
0.646,5.644548
0.647,5.644602
0.648,5.644654
0.649,5.644705
0.65,5.644754
0.651,5.644801999999999
0.652,5.6448480000000005
0.653,5.644894
0.654,5.644938
0.655,5.644982
0.656,5.645025
0.657,5.645068
0.658,5.645111
0.659,5.645153
0.66,5.645196
0.661,5.645239
0.662,5.645281
0.663,5.645324
0.664,5.645367
0.665,5.645409
0.666,5.645452
0.667,5.645494
0.668,5.645535
0.669,5.645576
0.67,5.645617
0.671,5.645658
0.672,5.645697
0.673,5.6457370000000004
0.674,5.645776000000001
0.675,5.645814
0.676,5.645852
0.677,5.645889
0.678,5.645926
0.679,5.645962
0.68,5.6459980000000005
0.681,5.646033
0.682,5.646068
0.683,5.646102
0.684,5.646136
0.685,5.646169
0.686,5.646202
0.687,5.646235
0.688,5.646267
0.689,5.646299
0.69,5.64633
0.691,5.646361
0.692,5.646391
0.693,5.646422
0.694,5.646451
0.695,5.646481
0.696,5.64651
0.697,5.646538
0.698,5.646567
0.699,5.646595
0.7,5.646622
0.701,5.64665
0.702,5.646676
0.703,5.646703
0.704,5.646730000000001
0.705,5.646756
0.706,5.646781
0.707,5.646807
0.708,5.646832
0.709,5.646857
0.71,5.646881
0.711,5.6469059999999995
0.712,5.64693
0.713,5.646954
0.714,5.646977
0.715,5.647001
0.716,5.647024
0.717,5.647046
0.718,5.647069
0.719,5.6470910000000005
0.72,5.647113
0.721,5.647135
0.722,5.647157
0.723,5.647178
0.724,5.647199
0.725,5.64722
0.726,5.647241
0.727,5.6472620000000004
0.728,5.647282
0.729,5.647302
0.73,5.647322
0.731,5.647342
0.732,5.647362
0.733,5.647381
0.734,5.6474
0.735,5.647419
0.736,5.647438
0.737,5.647457
0.738,5.647475
0.739,5.647494
0.74,5.647512
0.741,5.647530000000001
0.742,5.6475480000000005
0.743,5.647565
0.744,5.647583
0.745,5.6476
0.746,5.647616999999999
0.747,5.647634
0.748,5.647651000000001
0.749,5.647668
0.75,5.647685
0.751,5.6477010000000005
0.752,5.647717
0.753,5.647734
0.754,5.64775
0.755,5.647766000000001
0.756,5.647781
0.757,5.647797
0.758,5.647812
0.759,5.647828
0.76,5.647843
0.761,5.647858
0.762,5.647873000000001
0.763,5.647888
0.764,5.6479029999999995
0.765,5.647917
0.766,5.647932
0.767,5.647946
0.768,5.6479610000000005
0.769,5.647975
0.77,5.647989
0.771,5.648003
0.772,5.648016999999999
0.773,5.648031
0.774,5.6480440000000005
0.775,5.648058
0.776,5.648071
0.777,5.648085
0.778,5.648098
0.779,5.648111
0.78,5.648124
0.781,5.648137
0.782,5.64815
0.783,5.648162999999999
0.784,5.648175
0.785,5.648187999999999
0.786,5.6482
0.787,5.648213
0.788,5.648225
0.789,5.648237
0.79,5.648249
0.791,5.648261
0.792,5.6482730000000005
0.793,5.648285
0.794,5.648297
0.795,5.648308999999999
0.796,5.64832
0.797,5.648332
0.798,5.648343
0.799,5.6483550000000005
0.8,5.648366
0.801,5.648377
0.802,5.648388
0.803,5.6483989999999995
0.804,5.64841
0.805,5.648421
0.806,5.648432
0.807,5.648443
0.808,5.648454
0.809,5.648464
0.81,5.648475
0.811,5.648486
0.812,5.648496
0.813,5.648505999999999
0.814,5.648517
0.815,5.648527
0.816,5.648537
0.817,5.648547
0.818,5.648557
0.819,5.648567
0.82,5.6485769999999995
0.821,5.648587
0.822,5.6485970000000005
0.823,5.648607
0.824,5.6486160000000005
0.825,5.648626
0.826,5.648636
0.827,5.648645
0.828,5.648655000000001
0.829,5.648664
0.83,5.6486730000000005
0.831,5.648683
0.832,5.648692
0.833,5.648701
0.834,5.6487099999999995
0.835,5.648719
0.836,5.648728
0.837,5.648737000000001
0.838,5.648746
0.839,5.648755
0.84,5.648764
0.841,5.648773
0.842,5.648781
0.843,5.64879
0.844,5.6487989999999995
0.845,5.648807
0.846,5.648816
0.847,5.648823999999999
0.848,5.648833
0.849,5.648841
0.85,5.64885
0.851,5.648858000000001
0.852,5.648866
0.853,5.648874
0.854,5.648882
0.855,5.648891000000001
0.856,5.648899
0.857,5.648907
0.858,5.648915000000001
0.859,5.648923
0.86,5.64893
0.861,5.648937999999999
0.862,5.648946
0.863,5.648954
0.864,5.648962
0.865,5.648969
0.866,5.6489769999999995
0.867,5.648985
0.868,5.648992
0.869,5.649
0.87,5.649007
0.871,5.649015
0.872,5.649022
0.873,5.649030000000001
0.874,5.649037
0.875,5.649044
0.876,5.649051999999999
0.877,5.649058999999999
0.878,5.649066
0.879,5.6490730000000005
0.88,5.6490800000000005
0.881,5.649087000000001
0.882,5.649094
0.883,5.649101
0.884,5.649108
0.885,5.649115
0.886,5.649122
0.887,5.649129
0.888,5.649136
0.889,5.6491430000000005
0.89,5.64915
0.891,5.649157
0.892,5.649163
0.893,5.64917
0.894,5.649177
0.895,5.649183
0.896,5.64919
0.897,5.649196
0.898,5.649203
0.899,5.64921
0.9,5.649216
0.901,5.649222
0.902,5.649229
0.903,5.649235
0.904,5.649242
0.905,5.649248
0.906,5.649254
0.907,5.649261
0.908,5.649267
0.909,5.649273
0.91,5.649279
0.911,5.649285
0.912,5.649292
0.913,5.649298
0.914,5.649304
0.915,5.64931
0.916,5.649316000000001
0.917,5.649322
0.918,5.649328
0.919,5.649334
0.92,5.6493400000000005
0.921,5.6493459999999995
0.922,5.6493519999999995
0.923,5.649358
0.924,5.649363
0.925,5.649369
0.926,5.649375
0.927,5.649381
0.928,5.649386
0.929,5.649392
0.93,5.649398000000001
0.931,5.649404
0.932,5.6494089999999995
0.933,5.649415
0.934,5.64942
0.935,5.649426
0.936,5.649432
0.937,5.649437
0.938,5.649443
0.939,5.6494480000000005
0.94,5.649454
0.941,5.649458999999999
0.942,5.649464
0.943,5.64947
0.944,5.649475
0.945,5.649481
0.946,5.6494860000000005
0.947,5.649491
0.948,5.649497
0.949,5.649502
0.95,5.649507
0.951,5.6495120000000005
0.952,5.6495169999999995
0.953,5.649523
0.954,5.649528
0.955,5.649533
0.956,5.649538
0.957,5.649543
0.958,5.649548
0.959,5.649553
0.96,5.649558
0.961,5.649563
0.962,5.6495690000000005
0.963,5.649573999999999
0.964,5.649578
0.965,5.649583
0.966,5.649588
0.967,5.649593
0.968,5.649598
0.969,5.649603
0.97,5.649608
0.971,5.6496129999999996
0.972,5.649618
0.973,5.649622
0.974,5.649627
0.975,5.6496319999999995
0.976,5.649637
0.977,5.649642
0.978,5.649646
0.979,5.649651
0.98,5.649655999999999
0.981,5.64966
0.982,5.649665
0.983,5.6496699999999995
0.984,5.649674
0.985,5.649679
0.986,5.649684
0.987,5.649687999999999
0.988,5.649693
0.989,5.649697
0.99,5.649702
0.991,5.649706
0.992,5.649711
0.993,5.6497150000000005
0.994,5.649719999999999
0.995,5.649724
0.996,5.649729
0.997,5.649733
0.998,5.649738
0.999,5.649742
1.0,5.6497459999999995
