time (sec),Na_j
0.501,5.659115
0.502,5.650918
0.503,5.648857
0.504,5.649058999999999
0.505,5.650066000000001
0.506,5.651332
0.507,5.652648999999999
0.508,5.653938
0.509,5.655165
0.51,5.656316
0.511,5.6573839999999995
0.512,5.658367
0.513,5.659265
0.514,5.660081
0.515,5.660817
0.516,5.661478
0.517,5.66207
0.518,5.662598
0.519,5.663068
0.52,5.663485
0.521,5.663855
0.522,5.664182
0.523,5.664472
0.524,5.664727
0.525,5.664953
0.526,5.665152
0.527,5.665328
0.528,5.665483999999999
0.529,5.66562
0.53,5.665741000000001
0.531,5.665847
0.532,5.665941
0.533,5.666023
0.534,5.666094999999999
0.535,5.6661589999999995
0.536,5.666215
0.537,5.666263
0.538,5.666306
0.539,5.666343
0.54,5.666375
0.541,5.666403
0.542,5.666427
0.543,5.666447
0.544,5.6664639999999995
0.545,5.666478
0.546,5.6664900000000005
0.547,5.6665
0.548,5.666507
0.549,5.666512
0.55,5.6665160000000006
0.551,5.666518
0.552,5.666518
0.553,5.666517
0.554,5.666515
0.555,5.666511
0.556,5.666506
0.557,5.6665
0.558,5.666493
0.559,5.666484
0.56,5.666475
0.561,5.6664639999999995
0.562,5.666452
0.563,5.666439
0.564,5.666425
0.565,5.666409
0.566,5.666393
0.567,5.666375
0.568,5.6663559999999995
0.569,5.666336
0.57,5.666315
0.571,5.6662930000000005
0.572,5.666269000000001
0.573,5.666244
0.574,5.666218
0.575,5.666191
0.576,5.666162
0.577,5.666132
0.578,5.666101
0.579,5.666069
0.58,5.666035
0.581,5.666
0.582,5.665964
0.583,5.665927
0.584,5.665888
0.585,5.665848
0.586,5.665808
0.587,5.6657660000000005
0.588,5.665723000000001
0.589,5.665679
0.59,5.665633000000001
0.591,5.665587
0.592,5.66554
0.593,5.6654919999999995
0.594,5.665443
0.595,5.665394
0.596,5.665343
0.597,5.665292
0.598,5.66524
0.599,5.665187
0.6,5.665133999999999
0.601,5.665080000000001
0.602,5.665025
0.603,5.664969999999999
0.604,5.664914
0.605,5.664857
0.606,5.6648
0.607,5.6647419999999995
0.608,5.664683999999999
0.609,5.664625
0.61,5.6645650000000005
0.611,5.664504
0.612,5.664443
0.613,5.664381
0.614,5.664318
0.615,5.6642529999999995
0.616,5.664187999999999
0.617,5.664121
0.618,5.664052
0.619,5.663981
0.62,5.663908999999999
0.621,5.663834
0.622,5.663757
0.623,5.663676000000001
0.624,5.6635919999999995
0.625,5.663505000000001
0.626,5.6634139999999995
0.627,5.663318
0.628,5.6632169999999995
0.629,5.66311
0.63,5.662997
0.631,5.662877
0.632,5.662749
0.633,5.6626129999999995
0.634,5.662468
0.635,5.662312
0.636,5.6621440000000005
0.637,5.661965
0.638,5.661772
0.639,5.661565
0.64,5.661345
0.641,5.66111
0.642,5.660862
0.643,5.660602
0.644,5.66033
0.645,5.66005
0.646,5.659764
0.647,5.659475
0.648,5.659189
0.649,5.65891
0.65,5.658645
0.651,5.658397
0.652,5.658175
0.653,5.65798
0.654,5.657817
0.655,5.657687999999999
0.656,5.65759
0.657,5.657523
0.658,5.657479
0.659,5.657455000000001
0.66,5.657441
0.661,5.657433
0.662,5.657424
0.663,5.6574089999999995
0.664,5.657385
0.665,5.657353
0.666,5.65731
0.667,5.65726
0.668,5.657202
0.669,5.657138
0.67,5.657071
0.671,5.657
0.672,5.656929
0.673,5.656855999999999
0.674,5.656784
0.675,5.656713
0.676,5.656643
0.677,5.656574
0.678,5.656507
0.679,5.656442
0.68,5.656379
0.681,5.656317
0.682,5.656258
0.683,5.6562
0.684,5.656144
0.685,5.65609
0.686,5.656038
0.687,5.6559870000000005
0.688,5.655937000000001
0.689,5.65589
0.69,5.655844
0.691,5.655799
0.692,5.655755
0.693,5.6557129999999995
0.694,5.655672
0.695,5.655632
0.696,5.655594000000001
0.697,5.655556
0.698,5.65552
0.699,5.655485
0.7,5.65545
0.701,5.655417
0.702,5.655384
0.703,5.655353
0.704,5.655322
0.705,5.655292
0.706,5.655263
0.707,5.655234
0.708,5.655207
0.709,5.6551800000000005
0.71,5.6551540000000005
0.711,5.6551279999999995
0.712,5.6551029999999995
0.713,5.655079
0.714,5.655055
0.715,5.655032
0.716,5.655009
0.717,5.654987
0.718,5.654965
0.719,5.654944
0.72,5.654923999999999
0.721,5.654904
0.722,5.654884
0.723,5.654865
0.724,5.654846
0.725,5.654828
0.726,5.6548099999999994
0.727,5.654792
0.728,5.654775
0.729,5.654758
0.73,5.654742
0.731,5.654726
0.732,5.65471
0.733,5.654694999999999
0.734,5.65468
0.735,5.6546650000000005
0.736,5.654651
0.737,5.654636
0.738,5.654622
0.739,5.654609
0.74,5.654596
0.741,5.6545819999999996
0.742,5.65457
0.743,5.654557
0.744,5.654545
0.745,5.654533
0.746,5.654521
0.747,5.654509
0.748,5.654498
0.749,5.6544870000000005
0.75,5.654476
0.751,5.654465
0.752,5.654454
0.753,5.654444
0.754,5.654433999999999
0.755,5.654424
0.756,5.654414
0.757,5.654404
0.758,5.654395
0.759,5.654386
0.76,5.654376999999999
0.761,5.654368
0.762,5.6543589999999995
0.763,5.65435
0.764,5.654342
0.765,5.654333
0.766,5.654325
0.767,5.654317
0.768,5.654309
0.769,5.654301
0.77,5.654294
0.771,5.654286
0.772,5.654279
0.773,5.654272
0.774,5.6542639999999995
0.775,5.654257
0.776,5.654251
0.777,5.654244
0.778,5.654237
0.779,5.654230999999999
0.78,5.654224
0.781,5.654218
0.782,5.654212
0.783,5.654205
0.784,5.654199
0.785,5.654194
0.786,5.6541879999999995
0.787,5.654182
0.788,5.6541760000000005
0.789,5.654171
0.79,5.654165
0.791,5.65416
0.792,5.654155
0.793,5.654148999999999
0.794,5.6541440000000005
0.795,5.654139
0.796,5.654134
0.797,5.65413
0.798,5.654125
0.799,5.65412
0.8,5.654115
0.801,5.654111
0.802,5.654106
0.803,5.654102
0.804,5.654098
0.805,5.654093
0.806,5.654089
0.807,5.654085
0.808,5.654081
0.809,5.654077
0.81,5.654073
0.811,5.654069
0.812,5.654065
0.813,5.654062000000001
0.814,5.654058
0.815,5.654054
0.816,5.654051
0.817,5.654047
0.818,5.654044
0.819,5.65404
0.82,5.654037000000001
0.821,5.654033999999999
0.822,5.6540300000000006
0.823,5.654026999999999
0.824,5.654024
0.825,5.654021
0.826,5.654018
0.827,5.654015
0.828,5.654012000000001
0.829,5.654008999999999
0.83,5.654006
0.831,5.6540029999999994
0.832,5.654001
0.833,5.6539980000000005
0.834,5.653995
0.835,5.653993
0.836,5.65399
0.837,5.653987
0.838,5.653985
0.839,5.653982
0.84,5.653980000000001
0.841,5.6539779999999995
0.842,5.653975
0.843,5.653973000000001
0.844,5.653971
0.845,5.653969
0.846,5.6539660000000005
0.847,5.653964
0.848,5.653962
0.849,5.65396
0.85,5.653958
0.851,5.653956
0.852,5.653954
0.853,5.653951999999999
0.854,5.65395
0.855,5.653948000000001
0.856,5.6539459999999995
0.857,5.653944999999999
0.858,5.653943
0.859,5.6539410000000005
0.86,5.653939
0.861,5.653938
0.862,5.653936
0.863,5.653934
0.864,5.653933
0.865,5.653931
0.866,5.65393
0.867,5.653928
0.868,5.6539269999999995
0.869,5.653925
0.87,5.653924
0.871,5.653922000000001
0.872,5.6539209999999995
0.873,5.653919999999999
0.874,5.653918
0.875,5.653917
0.876,5.653916000000001
0.877,5.653914
0.878,5.653912999999999
0.879,5.653912
0.88,5.653911
0.881,5.65391
0.882,5.653909
0.883,5.653907
0.884,5.653906
0.885,5.653905
0.886,5.653904
0.887,5.653903
0.888,5.6539019999999995
0.889,5.653901
0.89,5.6539
0.891,5.653899
0.892,5.653898000000001
0.893,5.653897
0.894,5.653896
0.895,5.653896
0.896,5.6538949999999994
0.897,5.653894
0.898,5.653893
0.899,5.653892
0.9,5.653891000000001
0.901,5.653891000000001
0.902,5.6538900000000005
0.903,5.6538889999999995
0.904,5.6538889999999995
0.905,5.653887999999999
0.906,5.653887
0.907,5.653887
0.908,5.653886
0.909,5.653885
0.91,5.653885
0.911,5.653884
0.912,5.653883
0.913,5.653883
0.914,5.653882
0.915,5.653882
0.916,5.653881
0.917,5.653881
0.918,5.65388
0.919,5.65388
0.92,5.653879
0.921,5.653879
0.922,5.653878
0.923,5.653878
0.924,5.653878
0.925,5.653877
0.926,5.653877
0.927,5.653876
0.928,5.653876
0.929,5.653876
0.93,5.653875
0.931,5.653875
0.932,5.653875
0.933,5.653875
0.934,5.653874
0.935,5.653874
0.936,5.653874
0.937,5.653873
0.938,5.653873
0.939,5.653873
0.94,5.653873
0.941,5.653873
0.942,5.653872
0.943,5.653872
0.944,5.653872
0.945,5.653872
0.946,5.653872
0.947,5.653872
0.948,5.653871
0.949,5.653871
0.95,5.653871
0.951,5.653871
0.952,5.653871
0.953,5.653871
0.954,5.653871
0.955,5.653871
0.956,5.653871
0.957,5.653871
0.958,5.653871
0.959,5.653871
0.96,5.653871
0.961,5.653871
0.962,5.653871
0.963,5.653871
0.964,5.653871
0.965,5.653871
0.966,5.653871
0.967,5.653871
0.968,5.653871
0.969,5.653871
0.97,5.653871
0.971,5.653871
0.972,5.653871
0.973,5.653871
0.974,5.653871
0.975,5.653871
0.976,5.653871
0.977,5.653872
0.978,5.653872
0.979,5.653872
0.98,5.653872
0.981,5.653872
0.982,5.653872
0.983,5.653872
0.984,5.653873
0.985,5.653873
0.986,5.653873
0.987,5.653873
0.988,5.653873
0.989,5.653874
0.99,5.653874
0.991,5.653874
0.992,5.653874
0.993,5.653874
0.994,5.653875
0.995,5.653875
0.996,5.653875
0.997,5.653875
0.998,5.653876
0.999,5.653876
1.0,5.653876
